 frequency       Tmag            Tphase         
 1.00000000e+00  3.48976141e+01 -9.41083730e-03 
 1.12201845e+00  3.48976141e+01 -1.05591331e-02 
 1.25892541e+00  3.48976140e+01 -1.18475422e-02 
 1.41253754e+00  3.48976140e+01 -1.32931609e-02 
 1.58489319e+00  3.48976139e+01 -1.49151718e-02 
 1.77827941e+00  3.48976139e+01 -1.67350979e-02 
 1.99526231e+00  3.48976138e+01 -1.87770885e-02 
 2.23872114e+00  3.48976136e+01 -2.10682396e-02 
 2.51188643e+00  3.48976135e+01 -2.36389534e-02 
 2.81838293e+00  3.48976133e+01 -2.65233416e-02 
 3.16227766e+00  3.48976131e+01 -2.97596781e-02 
 3.54813389e+00  3.48976128e+01 -3.33909073e-02 
 3.98107171e+00  3.48976124e+01 -3.74652131e-02 
 4.46683592e+00  3.48976119e+01 -4.20366589e-02 
 5.01187234e+00  3.48976113e+01 -4.71659049e-02 
 5.62341325e+00  3.48976105e+01 -5.29210126e-02 
 6.30957344e+00  3.48976096e+01 -5.93783484e-02 
 7.07945784e+00  3.48976084e+01 -6.66235966e-02 
 7.94328235e+00  3.48976068e+01 -7.47528961e-02 
 8.91250938e+00  3.48976049e+01 -8.38741167e-02 
 1.00000000e+01  3.48976025e+01 -9.41082894e-02 
 1.12201845e+01  3.48975995e+01 -1.05591213e-01 
 1.25892541e+01  3.48975957e+01 -1.18475255e-01 
 1.41253754e+01  3.48975909e+01 -1.32931373e-01 
 1.58489319e+01  3.48975848e+01 -1.49151385e-01 
 1.77827941e+01  3.48975772e+01 -1.67350509e-01 
 1.99526231e+01  3.48975677e+01 -1.87770221e-01 
 2.23872114e+01  3.48975556e+01 -2.10681459e-01 
 2.51188643e+01  3.48975404e+01 -2.36388209e-01 
 2.81838293e+01  3.48975213e+01 -2.65231544e-01 
 3.16227766e+01  3.48974973e+01 -2.97594138e-01 
 3.54813389e+01  3.48974670e+01 -3.33905340e-01 
 3.98107171e+01  3.48974288e+01 -3.74646858e-01 
 4.46683592e+01  3.48973808e+01 -4.20359141e-01 
 5.01187234e+01  3.48973204e+01 -4.71648527e-01 
 5.62341325e+01  3.48972443e+01 -5.29195264e-01 
 6.30957344e+01  3.48971486e+01 -5.93762492e-01 
 7.07945784e+01  3.48970280e+01 -6.66206313e-01 
 7.94328235e+01  3.48968762e+01 -7.47487077e-01 
 8.91250938e+01  3.48966852e+01 -8.38682005e-01 
 1.00000000e+02  3.48964446e+01 -9.40999328e-01 
 1.12201845e+02  3.48961419e+01 -1.05579409e+00 
 1.25892541e+02  3.48957607e+01 -1.18458583e+00 
 1.41253754e+02  3.48952809e+01 -1.32907825e+00 
 1.58489319e+02  3.48946770e+01 -1.49118125e+00 
 1.77827941e+02  3.48939167e+01 -1.67303533e+00 
 1.99526231e+02  3.48929599e+01 -1.87703875e+00 
 2.23872114e+02  3.48917556e+01 -2.10587758e+00 
 2.51188643e+02  3.48902399e+01 -2.36255882e+00 
 2.81838293e+02  3.48883325e+01 -2.65044677e+00 
 3.16227766e+02  3.48859325e+01 -2.97330269e+00 
 3.54813389e+02  3.48829129e+01 -3.33532771e+00 
 3.98107171e+02  3.48791145e+01 -3.74120870e+00 
 4.46683592e+02  3.48743372e+01 -4.19616659e+00 
 5.01187234e+02  3.48683305e+01 -4.70600623e+00 
 5.62341325e+02  3.48607803e+01 -5.27716621e+00 
 6.30957344e+02  3.48512937e+01 -5.91676620e+00 
 7.07945784e+02  3.48393802e+01 -6.63264845e+00 
 7.94328235e+02  3.48244284e+01 -7.43340826e+00 
 8.91250938e+02  3.48056780e+01 -8.32840625e+00 
 1.00000000e+03  3.47821872e+01 -9.32775276e+00 
 1.12201845e+03  3.47527940e+01 -1.04422516e+01 
 1.25892541e+03  3.47160703e+01 -1.16832834e+01 
 1.41253754e+03  3.46702750e+01 -1.30626142e+01 
 1.58489319e+03  3.46133005e+01 -1.45920946e+01 
 1.77827941e+03  3.45426206e+01 -1.62832293e+01 
 1.99526231e+03  3.44552449e+01 -1.81465852e+01 
 2.23872114e+03  3.43476878e+01 -2.01910219e+01 
 2.51188643e+03  3.42159617e+01 -2.24227321e+01 
 2.81838293e+03  3.40556166e+01 -2.48441420e+01 
 3.16227766e+03  3.38618190e+01 -2.74526779e+01 
 3.54813389e+03  3.36295354e+01 -3.02396879e+01 
 3.98107171e+03  3.33537324e+01 -3.31894045e+01 
 4.46683592e+03  3.30297095e+01 -3.62785903e+01 
 5.01187234e+03  3.26534151e+01 -3.94766403e+01 
 5.62341325e+03  3.22218090e+01 -4.27467091e+01 
 6.30957344e+03  3.17331306e+01 -4.60474855e+01 
 7.07945784e+03  3.11870827e+01 -4.93357310e+01 
 7.94328235e+03  3.05848621e+01 -5.25690777e+01 
 8.91250938e+03  2.99290363e+01 -5.57086814e+01 
 1.00000000e+04  2.92232958e+01 -5.87213612e+01 
 1.12201845e+04  2.84721287e+01 -6.15809626e+01 
 1.25892541e+04  2.76804737e+01 -6.42688894e+01 
 1.41253754e+04  2.68533991e+01 -6.67738778e+01 
 1.58489319e+04  2.59958396e+01 -6.90912071e+01 
 1.77827941e+04  2.51124101e+01 -7.12216388e+01 
 1.99526231e+04  2.42072867e+01 -7.31701782e+01 
 2.23872114e+04  2.32841537e+01 -7.49449590e+01 
 2.51188643e+04  2.23461941e+01 -7.65562064e+01 
 2.81838293e+04  2.13961115e+01 -7.80153887e+01 
 3.16227766e+04  2.04361721e+01 -7.93345794e+01 
 3.54813389e+04  1.94682548e+01 -8.05259481e+01 
 3.98107171e+04  1.84939039e+01 -8.16014378e+01 
 4.46683592e+04  1.75143797e+01 -8.25725162e+01 
 5.01187234e+04  1.65307052e+01 -8.34500636e+01 
 5.62341325e+04  1.55437066e+01 -8.42442797e+01 
 6.30957344e+04  1.45540488e+01 -8.49646692e+01 
 7.07945784e+04  1.35622651e+01 -8.56200561e+01 
 7.94328235e+04  1.25687820e+01 -8.62186102e+01 
 8.91250938e+04  1.15739395e+01 -8.67679013e+01 
 1.00000000e+05  1.05780079e+01 -8.72749532e+01 
 1.12201845e+05  9.58120096e+00 -8.77463032e+01 
 1.25892541e+05  8.58368696e+00 -8.81880719e+01 
 1.41253754e+05  7.58559714e+00 -8.86060232e+01 
 1.58489319e+05  6.58703256e+00 -8.90056369e+01 
 1.77827941e+05  5.58806921e+00 -8.93921646e+01 
 1.99526231e+05  4.58876202e+00 -8.97706979e+01 
 2.23872114e+05  3.58914770e+00 -9.01462318e+01 
 2.51188643e+05  2.58924674e+00 -9.05237268e+01 
 2.81838293e+05  1.58906436e+00 -9.09081709e+01 
 3.16227766e+05  5.88590896e-01 -9.13046445e+01 
 3.54813389e+05 -4.12198808e-01 -9.17183854e+01 
 3.98107171e+05 -1.41334663e+00 -9.21548555e+01 
 4.46683592e+05 -2.41491343e+00 -9.26198083e+01 
 5.01187234e+05 -3.41698224e+00 -9.31193634e+01 
 5.62341325e+05 -4.41966251e+00 -9.36600795e+01 
 6.30957344e+05 -5.42309589e+00 -9.42490340e+01 
 7.07945784e+05 -6.42746345e+00 -9.48939054e+01 
 7.94328235e+05 -7.43299505e+00 -9.56030584e+01 
 8.91250938e+05 -8.43998089e+00 -9.63856327e+01 
 1.00000000e+06 -9.44878605e+00 -9.72516327e+01 
 1.12201845e+06 -1.04598686e+01 -9.82120159e+01 
 1.25892541e+06 -1.14738016e+01 -9.92787769e+01 
 1.41253754e+06 -1.24913000e+01 -1.00465021e+02 
 1.58489319e+06 -1.35132533e+01 -1.01785020e+02 
 1.77827941e+06 -1.45407643e+01 -1.03254241e+02 
 1.99526231e+06 -1.55751942e+01 -1.04889330e+02 
 2.23872114e+06 -1.66182151e+01 -1.06708035e+02 
 2.51188643e+06 -1.76718676e+01 -1.08729045e+02 
 2.81838293e+06 -1.87386228e+01 -1.10971712e+02 
 3.16227766e+06 -1.98214445e+01 -1.13455637e+02 
 3.54813389e+06 -2.09238448e+01 -1.16200076e+02 
 3.98107171e+06 -2.20499254e+01 -1.19223155e+02 
 4.46683592e+06 -2.32043911e+01 -1.22540884e+02 
 5.01187234e+06 -2.43925207e+01 -1.26166007e+02 
 5.62341325e+06 -2.56200807e+01 -1.30106741e+02 
 6.30957344e+06 -2.68931678e+01 -1.34365562e+02 
 7.07945784e+06 -2.82179752e+01 -1.38938182e+02 
 7.94328235e+06 -2.96004873e+01 -1.43812968e+02 
 8.91250938e+06 -3.10461286e+01 -1.48970974e+02 
 1.00000000e+07 -3.25593993e+01 -1.54386746e+02 
 1.12201845e+07 -3.41435481e+01 -1.60029903e+02 
 1.25892541e+07 -3.58003262e+01 -1.65867389e+02 
 1.41253754e+07 -3.75298613e+01 -1.71866128e+02 
 1.58489319e+07 -3.93306714e+01 -1.77995730e+02 
 1.77827941e+07 -4.11998176e+01 -1.84230848e+02 
 1.99526231e+07 -4.31331663e+01 -1.90552752e+02 
 2.23872114e+07 -4.51257077e+01 -1.96949798e+02 
 2.51188643e+07 -4.71718509e+01 -2.03416608e+02 
 2.81838293e+07 -4.92656099e+01 -2.09952079e+02 
 3.16227766e+07 -5.14006143e+01 -2.16556586e+02 
 3.54813389e+07 -5.35699194e+01 -2.23228972e+02 
 3.98107171e+07 -5.57656477e+01 -2.29963953e+02 
 4.46683592e+07 -5.79785465e+01 -2.36750373e+02 
 5.01187234e+07 -6.01975755e+01 -2.43570501e+02 
 5.62341325e+07 -6.24096398e+01 -2.50400259e+02 
 6.30957344e+07 -6.45995576e+01 -2.57210047e+02 
 7.07945784e+07 -6.67503076e+01 -2.63965852e+02 
 7.94328235e+07 -6.88435568e+01 -2.70630386e+02 
 8.91250938e+07 -7.08604255e+01 -2.77164224e+02 
 1.00000000e+08 -7.27824224e+01 -2.83527031e+02 
 1.12201845e+08 -7.45924579e+01 -2.89679011e+02 
 1.25892541e+08 -7.62758394e+01 -2.95582611e+02 
 1.41253754e+08 -7.78211437e+01 -3.01204359e+02 
 1.58489319e+08 -7.92208698e+01 -3.06516601e+02 
 1.77827941e+08 -8.04717928e+01 -3.11498822e+02 
 1.99526231e+08 -8.15749709e+01 -3.16138367e+02 
 2.23872114e+08 -8.25354057e+01 -3.20430453e+02 
 2.51188643e+08 -8.33614079e+01 -3.24377568e+02 
 2.81838293e+08 -8.40637650e+01 -3.27988416e+02 
 3.16227766e+08 -8.46548312e+01 -3.31276618e+02 
 3.54813389e+08 -8.51476563e+01 -3.34259366e+02 
 3.98107171e+08 -8.55552408e+01 -3.36956167e+02 
 4.46683592e+08 -8.58899673e+01 -3.39387770e+02 
 5.01187234e+08 -8.61632180e+01 -3.41575296e+02 
 5.62341325e+08 -8.63851617e+01 -3.43539585e+02 
 6.30957344e+08 -8.65646766e+01 -3.45300736e+02 
 7.07945784e+08 -8.67093710e+01 -3.46877789e+02 
 7.94328235e+08 -8.68256679e+01 -3.48288552e+02 
 8.91250938e+08 -8.69189244e+01 -3.49549500e+02 
 1.00000000e+09 -8.69935648e+01 -3.50675758e+02 
 1.12201845e+09 -8.70532147e+01 -3.51681123e+02 
 1.25892541e+09 -8.71008265e+01 -3.52578116e+02 
 1.41253754e+09 -8.71387923e+01 -3.53378054e+02 
 1.58489319e+09 -8.71690427e+01 -3.54091139e+02 
 1.77827941e+09 -8.71931301e+01 -3.54726537e+02 
 1.99526231e+09 -8.72123005e+01 -3.55292470e+02 
 2.23872114e+09 -8.72275512e+01 -3.55796299e+02 
 2.51188643e+09 -8.72396795e+01 -3.56244604e+02 
 2.81838293e+09 -8.72493220e+01 -3.56643259e+02 
 3.16227766e+09 -8.72569861e+01 -3.56997501e+02 
 3.54813389e+09 -8.72630761e+01 -3.57311992e+02 
 3.98107171e+09 -8.72679141e+01 -3.57590880e+02 
 4.46683592e+09 -8.72717562e+01 -3.57837847e+02 
 5.01187234e+09 -8.72748060e+01 -3.58056155e+02 
 5.62341325e+09 -8.72772254e+01 -3.58248693e+02 
 6.30957344e+09 -8.72791428e+01 -3.58418008e+02 
 7.07945784e+09 -8.72806600e+01 -3.58566343e+02 
 7.94328235e+09 -8.72818578e+01 -3.58695663e+02 
 8.91250938e+09 -8.72827998e+01 -3.58807681e+02 
 1.00000000e+10 -8.72835361e+01 -3.58903883e+02 
 1.12201845e+10 -8.72841059e+01 -3.58985544e+02 
 1.25892541e+10 -8.72845395e+01 -3.59053747e+02 
 1.41253754e+10 -8.72848600e+01 -3.59109398e+02 
 1.58489319e+10 -8.72850844e+01 -3.59153235e+02 
 1.77827941e+10 -8.72852248e+01 -3.59185840e+02 
 1.99526231e+10 -8.72852885e+01 -3.59207649e+02 
 2.23872114e+10 -8.72852790e+01 -3.59218952e+02 
 2.51188643e+10 -8.72851958e+01 -3.59219904e+02 
 2.81838293e+10 -8.72850344e+01 -3.59210521e+02 
 3.16227766e+10 -8.72847865e+01 -3.59190685e+02 
 3.54813389e+10 -8.72844387e+01 -3.59160143e+02 
 3.98107171e+10 -8.72839727e+01 -3.59118504e+02 
 4.46683592e+10 -8.72833639e+01 -3.59065234e+02 
 5.01187234e+10 -8.72825802e+01 -3.58999654e+02 
 5.62341325e+10 -8.72815802e+01 -3.58920931e+02 
 6.30957344e+10 -8.72803114e+01 -3.58828074e+02 
 7.07945784e+10 -8.72787073e+01 -3.58719929e+02 
 7.94328235e+10 -8.72766845e+01 -3.58595166e+02 
 8.91250938e+10 -8.72741379e+01 -3.58452282e+02 
 1.00000000e+11 -8.72709364e+01 -3.58289591e+02 
 1.12201845e+11 -8.72669168e+01 -3.58105235e+02 
 1.25892541e+11 -8.72618759e+01 -3.57897183e+02 
 1.41253754e+11 -8.72555630e+01 -3.57663260e+02 
 1.58489319e+11 -8.72476695e+01 -3.57401178e+02 
 1.77827941e+11 -8.72378184e+01 -3.57108596e+02 
 1.99526231e+11 -8.72255529e+01 -3.56783209e+02 
 2.23872114e+11 -8.72103253e+01 -3.56422875e+02 
 2.51188643e+11 -8.71914886e+01 -3.56025802e+02 
 2.81838293e+11 -8.71682931e+01 -3.55590792e+02 
 3.16227766e+11 -8.71398919e+01 -3.55117564e+02 
 3.54813389e+11 -8.71053640e+01 -3.54607169e+02 
 3.98107171e+11 -8.70637621e+01 -3.54062463e+02 
 4.46683592e+11 -8.70141988e+01 -3.53488634e+02 
 5.01187234e+11 -8.69559840e+01 -3.52893693e+02 
 5.62341325e+11 -8.68888292e+01 -3.52288795e+02 
 6.30957344e+11 -8.68131287e+01 -3.51688184e+02 
 7.07945784e+11 -8.67303176e+01 -3.51108440e+02 
 7.94328235e+11 -8.66432887e+01 -3.50566641e+02 
 8.91250938e+11 -8.65568176e+01 -3.50076980e+02 
 1.00000000e+12 -8.64779095e+01 -3.49645401e+02 
